Raman Shift	Normalized Intensity
cm-1	a.u.

50.43945	0.02929
52.36792	0.02959
54.29638	0.02835
56.22485	0.02802
58.15332	0.0287
60.08178	0.02834
62.01025	0.0269
63.93872	0.02493
65.86718	0.02296
67.79565	0.02351
69.72412	0.02407
71.65258	0.02446
73.58105	0.02553
75.50952	0.02543
77.43798	0.02376
79.36645	0.02244
81.29492	0.02155
83.22338	0.01893
85.15185	0.01749
87.08032	0.01929
89.00878	0.02195
90.93725	0.02352
92.86572	0.02595
94.79419	0.02807
96.72265	0.02976
98.65112	0.032
100.57959	0.03573
102.50805	0.0396
104.43652	0.04007
106.36499	0.03783
108.29345	0.03603
110.22192	0.03852
112.15039	0.03798
114.07885	0.03589
116.00732	0.03482
117.93579	0.03542
119.86425	0.03508
121.79272	0.03134
123.72119	0.03056
125.64965	0.02998
127.57812	0.02673
129.50659	0.02499
131.43505	0.02407
133.36352	0.02351
135.29199	0.02436
137.22045	0.0278
139.14892	0.03215
141.07739	0.03773
143.00586	0.04526
144.93432	0.04917
146.86279	0.0417
148.79126	0.03293
150.71972	0.02874
152.64819	0.02826
154.57666	0.02871
156.50512	0.02666
158.43359	0.02207
160.36206	0.02178
162.29052	0.02394
164.21899	0.02613
166.14746	0.02798
168.07592	0.03072
170.00439	0.02838
171.93286	0.02458
173.86132	0.02383
175.78979	0.02654
177.71826	0.02542
179.64672	0.02441
181.57519	0.02621
183.50366	0.03115
185.43212	0.03448
187.36059	0.0421
189.28906	0.05679
191.21752	0.0701
193.14599	0.07422
195.07446	0.08204
197.00293	0.07588
198.93139	0.05585
200.85986	0.03304
202.78833	0.02035
204.71679	0.01391
206.64526	0.01166
208.57373	0.011
210.50219	0.01063
212.43066	0.01038
214.35913	0.01119
216.28759	0.01032
218.21606	0.00821
220.14453	0.00717
222.07299	0.00885
224.00146	0.00491
225.92993	0.00788
227.85839	0.00896
229.78686	0.00715
231.71533	0.00739
233.6438	0.00516
235.57226	0.0056
237.50073	0.00568
239.42919	0.00477
241.35766	0.00467
243.28613	0.00737
245.2146	0.00606
247.14306	0.00496
249.07153	0.0054
251	0.00567
252.92846	0.00447
254.85693	0.00689
256.7854	0.0091
258.71386	0.00891
260.64233	0.00689
262.5708	0.00829
264.49926	0.01078
266.42773	0.01383
268.3562	0.02026
270.28466	0.03228
272.21313	0.04093
274.1416	0.03502
276.07006	0.02323
277.99853	0.01339
279.927	0.0094
281.85547	0.00603
283.78393	0.00455
285.7124	0.00401
287.64087	0.00369
289.56933	0.00345
291.4978	0.00449
293.42627	0.00564
295.35473	0.00473
297.2832	0.00137
299.21167	-0.00172
301.14013	0.00294
303.0686	0.00272
304.99707	0.00117
306.92553	0.00135
308.854	0.00326
310.78247	0.00221
312.71093	5.41923E-4
314.6394	5.99585E-4
316.56787	0.00229
318.49633	0.00391
320.4248	0.00308
322.35327	0.00309
324.28173	0.00143
326.2102	2.39673E-4
328.13867	0.00109
330.06714	0.00346
331.9956	0.00146
333.92407	0.00304
335.85253	0.00306
337.781	0.00196
339.70947	0.00275
341.63794	-5.7247E-4
343.5664	3.24155E-4
345.49487	0.00303
347.42334	0.00407
349.3518	0.00165
351.28027	-0.00134
353.20874	4.00044E-4
355.1372	0.00196
357.06567	0.00237
358.99414	0.0021
360.9226	0.00182
362.85107	0.00211
364.77954	0.00266
366.708	0.00325
368.63647	0.00383
370.56494	0.00403
372.4934	4.60129E-4
374.42187	-0.00277
376.35034	-9.26777E-4
378.2788	0.00316
380.20727	0.00409
382.13574	0.00339
384.06421	0.00412
385.99267	0.00229
387.92114	0.00158
389.84961	0.00342
391.77807	0.00128
393.70654	0.00254
395.63501	0.00343
397.56347	0.00252
399.49194	6.44218E-4
401.42041	1.35827E-4
403.34887	0.00154
405.27734	0.00323
407.20581	0.00299
409.13427	0.0015
411.06274	7.21819E-4
412.99121	0.0015
414.91967	0.00373
416.84814	0.00755
418.77661	0.00882
420.70507	0.00768
422.63354	0.00977
424.56201	0.00539
426.49047	0.00384
428.41894	0.0027
430.34741	0.0012
432.27588	6.07734E-4
434.20434	0.00195
436.13281	0.0035
438.06128	0.00298
439.98974	7.62137E-4
441.91821	-0.00107
443.84668	6.3306E-5
445.77514	0.00138
447.70361	0.00144
449.63208	2.4454E-4
451.56054	6.47174E-4
453.48901	0.00435
455.41748	0.00336
457.34594	0.00179
459.27441	0.00157
461.20288	0.00271
463.13134	0.00353
465.05981	0.00166
466.98828	-0.00107
468.91674	-8.55892E-4
470.84521	6.56663E-4
472.77368	0.00213
474.70214	0.00322
476.63061	0.00442
478.55908	0.00325
480.48755	0.00151
482.41601	0.00131
484.34448	0.00162
486.27294	-7.70063E-4
488.20141	-3.30895E-4
490.12988	0.00295
492.05834	0.00405
493.98681	0.00173
495.91528	-0.00201
497.84375	-0.00354
499.77221	-0.00257
501.70068	-0.00124
503.62915	-5.38908E-4
505.55761	-5.57248E-4
507.48608	-5.61562E-4
509.41455	9.22422E-4
511.34301	0.00193
513.27148	-2.54528E-4
515.19995	-0.00296
517.12841	-0.00235
519.05688	0.00256
520.98535	2.80218E-4
522.91381	-9.94245E-4
524.84228	-3.79942E-4
526.77075	0.00101
528.69921	0.00124
530.62768	-0.00108
532.55615	-9.89373E-4
534.48462	8.04435E-4
536.41308	0.00249
538.34155	0.00292
540.27002	0.00205
542.19848	9.41012E-4
544.12695	7.44419E-4
546.05542	2.74457E-4
547.98388	2.43288E-4
549.91235	0.00161
551.84082	0.00391
553.76928	0.00227
555.69775	0.00104
557.62622	7.6153E-4
559.55468	0.00213
561.48315	0.00303
563.41162	2.98028E-4
565.34008	0.00173
567.26855	-1.31611E-4
569.19702	6.80977E-4
571.12548	0.00162
573.05395	8.3091E-4
574.98242	0.0017
576.91089	0.00141
578.83935	0.00202
580.76782	0.00227
582.69628	0.00149
584.62475	5.83709E-4
586.55322	0.00164
588.48168	0.00173
590.41015	0.0022
592.33862	2.76085E-4
594.26709	-3.6191E-4
596.19555	0.00213
598.12402	0.00105
600.05249	0.00157
601.98095	-5.79322E-4
603.90942	3.13976E-4
605.83789	0.00124
607.76635	-9.04015E-4
609.69482	9.13504E-5
611.62329	6.61177E-5
613.55175	-3.58025E-4
615.48022	-0.00137
617.40869	-0.00161
619.33715	-1.59525E-4
621.26562	0.00113
623.19409	-0.00183
625.12255	8.37388E-4
627.05102	8.90183E-4
628.97949	-5.71741E-4
630.90796	1.63034E-4
632.83642	3.19895E-4
634.76489	9.94071E-4
636.69336	0.00149
638.62182	-1.2072E-4
640.55029	-7.75647E-4
642.47876	0.0011
644.40722	0.00124
646.33569	0.00295
648.26416	6.44339E-4
650.19262	-6.82873E-4
652.12109	2.65055E-4
654.04956	0.00146
655.97802	2.91781E-4
657.90649	5.12797E-4
659.83496	-0.00135
661.76342	-6.81051E-4
663.69189	0.00112
665.62036	0.00194
667.54882	0.00199
669.47729	0.00206
671.40576	7.26609E-4
673.33422	-4.26691E-4
675.26269	4.01144E-4
677.19116	0.00219
679.11963	0.0024
681.04809	0.00236
682.97656	0.00339
684.90503	0.0032
686.83349	0.00233
688.76196	0.00222
690.69043	0.00326
692.61889	0.00316
694.54736	0.0012
696.47583	1.03078E-4
698.40429	8.13559E-4
700.33276	0.00104
702.26123	-6.57747E-4
704.18969	-0.00157
706.11816	0.00159
708.04663	0.00209
709.97509	3.35214E-4
711.90356	-5.64539E-4
713.83203	2.33924E-4
715.76049	8.58362E-4
717.68896	0.00297
719.61743	0.00371
721.54589	0.00294
723.47436	0.00232
725.40283	0.00228
727.3313	0.00198
729.25976	9.46021E-4
731.18823	6.54941E-4
733.1167	0.00137
735.04516	0.00249
736.97363	0.00237
738.9021	0.00109
740.83056	0.00105
742.75903	0.00129
744.6875	0.0025
746.61596	0.00307
748.54443	0.00313
750.4729	0.00357
752.40136	0.00467
754.32983	0.00501
756.2583	0.00439
758.18676	0.00243
760.11523	0.00107
762.0437	0.00182
763.97216	0.00312
765.90063	0.00144
767.8291	0.00236
769.75756	0.00205
771.68603	8.12011E-4
773.6145	6.67508E-4
775.54296	0.00194
777.47143	0.00269
779.3999	6.34297E-4
781.32836	0.00145
783.25683	2.17956E-4
785.1853	0.00154
787.11376	0.00174
789.04223	-7.93857E-4
790.9707	-0.0012
792.89917	0.00196
794.82763	0.00159
796.7561	7.55764E-5
798.68457	2.41703E-4
800.61303	5.40507E-4
802.5415	3.80076E-5
804.46997	0.00172
806.39843	-0.00107
808.3269	-0.0012
810.25537	-0.00126
812.18383	-0.00121
814.1123	-0.0012
816.04077	-0.00161
817.96923	-0.00144
819.8977	-7.41111E-5
821.82617	0.00201
823.75464	0.00264
825.6831	0.00138
827.61157	-2.81268E-4
829.54003	-3.4294E-4
831.4685	0.00139
833.39697	0.00257
835.32543	0.00137
837.2539	0.00151
839.18237	0.00166
841.11084	7.9665E-4
843.0393	3.89269E-4
844.96777	-9.20909E-4
846.89624	0.00104
848.8247	-0.00236
850.75317	-0.00123
852.68164	0.00176
854.6101	0.00149
856.53857	5.64316E-5
858.46704	8.82253E-4
860.3955	9.66092E-4
862.32397	-5.1929E-4
864.25244	-6.81687E-4
866.1809	8.27552E-4
868.10937	0.00178
870.03784	4.26134E-4
871.9663	3.723E-4
873.89477	-0.00294
875.82324	-5.99715E-4
877.75171	0.00135
879.68017	0.00256
881.60864	0.00293
883.5371	4.16699E-5
885.46557	-5.91941E-5
887.39404	-0.00215
889.32251	-0.00165
891.25097	-8.13863E-4
893.17944	-2.67829E-4
895.10791	5.9906E-4
897.03637	0.00163
898.96484	8.79307E-4
900.89331	0.00124
902.82177	0.0013
904.75024	0.00202
906.67871	0.00158
908.60717	0.00104
910.53564	0.00243
912.46411	6.75306E-4
914.39257	8.46282E-4
916.32104	-0.00175
918.24951	-8.59297E-4
920.17797	8.43218E-4
922.10644	0.00111
924.03491	6.90431E-4
925.96338	-6.92702E-5
927.89184	6.12372E-6
929.82031	9.25532E-4
931.74878	-2.06303E-5
933.67724	-0.00164
935.60571	-1.55276E-4
937.53418	0.00334
939.46264	0.00208
941.39111	0.00203
943.31958	-0.00205
945.24804	-3.52824E-4
947.17651	-4.92344E-4
949.10498	-6.00206E-4
951.03344	3.462E-4
952.96191	-9.52655E-4
954.89038	4.39237E-4
956.81884	0.00303
958.74731	0.00122
960.67578	5.99481E-4
962.60424	0.00279
964.53271	0.00467
966.46118	0.00424
968.38964	0.00452
970.31811	0.0025
972.24658	-4.46522E-4
974.17504	-0.00122
976.10351	7.8226E-4
978.03198	0.00255
979.96045	0.00186
981.88891	1.08676E-4
983.81738	2.92381E-4
985.74584	1.43618E-4
987.67431	0.00171
989.60278	0.00223
991.53125	0.00226
993.45971	0.00199
995.38818	0.00129
997.31665	8.82792E-4
999.24511	4.32423E-4
1001.17358	-0.00268
1003.10205	-0.00117
1005.03051	0.00163
1006.95898	-7.21058E-4
1008.88745	-0.00373
1010.81591	-7.44561E-4
1012.74438	5.37736E-4
1014.67285	0.00358
1016.60131	5.76902E-4
1018.52978	0.0018
1020.45825	0.00165
1022.38671	-2.25834E-4
1024.31518	-0.00102
1026.24365	-6.92344E-4
1028.17211	-0.00221
1030.10058	-0.00136
1032.02905	0.00253
1033.95752	0.0022
1035.88598	0.0025
1037.81445	0.0031
1039.74292	0.00189
1041.67138	2.91533E-4
1043.59985	3.48865E-4
1045.52832	0.00319
1047.45678	1.71819E-4
1049.38525	3.89384E-4
1051.31372	6.4958E-4
1053.24218	-3.58229E-4
1055.17065	-1.31046E-4
1057.09912	0.00246
1059.02758	0.0029
1060.95605	0.00137
1062.88452	9.7754E-4
1064.81298	0.00128
1066.74145	0.0012
1068.66992	5.47892E-4
1070.59838	0.00116
1072.52685	0.00317
1074.45532	6.46155E-4
1076.38378	0.00282
1078.31225	0.00331
1080.24072	0.0056
1082.16919	0.00447
1084.09765	0.00131
1086.02612	1.60426E-4
1087.95459	0.00158
1089.88305	0.00296
1091.81152	0.00354
1093.73999	0.00265
1095.66845	0.00172
1097.59692	0.00196
1099.52539	0.00238
1101.45385	0.00319
1103.38232	0.00437
1105.31079	0.00384
1107.23925	0.00452
1109.16772	0.00439
1111.09619	0.00244
1113.02465	0.00277
1114.95312	0.00237
1116.88159	0.00195
1118.81005	0.00246
1120.73852	0.00154
1122.66699	0.00104
1124.59545	9.15658E-4
1126.52392	0.0028
1128.45239	0.00422
1130.38086	0.00316
1132.30932	0.00254
1134.23779	0.00223
1136.16626	9.18654E-4
1138.09472	0.00266
1140.02319	0.00416
1141.95166	0.00237
1143.88012	0.00235
1145.80859	0.00375
1147.73706	0.00351
1149.66552	0.00325
1151.59399	0.00325
1153.52246	0.00164
1155.45092	0.00324
1157.37939	0.0028
1159.30786	0.00143
1161.23632	0.00204
1163.16479	0.00262
1165.09326	0.00435
1167.02172	0.00495
1168.95019	0.00274
1170.87866	0.00202
1172.80712	0.00502
1174.73559	0.00173
1176.66406	0.00296
1178.59253	0.00212
1180.52099	0.00304
1182.44946	0.00362
1184.37793	0.00358
1186.30639	0.00455
1188.23486	0.0051
1190.16333	0.00513
1192.09179	0.0046
1194.02026	0.00437
1195.94873	0.00472
1197.87719	0.00306
1199.80566	0.00214
1201.73413	0.00328
1203.66259	0.00431
1205.59106	0.00421
1207.51953	0.00561
1209.44799	0.00493
1211.37646	0.00307
1213.30493	0.00332
1215.23339	0.00524
1217.16186	0.00459
1219.09033	0.00382
1221.01879	0.00531
1222.94726	0.00521
1224.87573	0.00472
1226.8042	0.00632
1228.73266	0.00491
1230.66113	0.00606
1232.5896	0.00518
1234.51806	0.0028
1236.44653	0.00248
1238.375	0.00464
1240.30346	0.00574
1242.23193	0.00486
1244.1604	0.00909
1246.08886	0.00732
1248.01733	0.00776
1249.9458	0.00867
1251.87426	0.00685
1253.80273	0.00493
1255.7312	0.00532
1257.65966	0.00665
1259.58813	0.00721
1261.5166	0.00851
1263.44506	0.00769
1265.37353	0.00555
1267.302	0.00534
1269.23046	0.0062
1271.15893	0.00706
1273.0874	0.00765
1275.01586	0.00742
1276.94433	0.00732
1278.8728	0.0097
1280.80127	0.00897
1282.72973	0.00703
1284.6582	0.00941
1286.58667	0.01072
1288.51513	0.01047
1290.4436	0.01196
1292.37207	0.01303
1294.30053	0.01267
1296.229	0.01245
1298.15747	0.01046
1300.08593	0.01666
1302.0144	0.01349
1303.94287	0.01588
1305.87133	0.0152
1307.7998	0.01653
1309.72827	0.01788
1311.65673	0.01833
1313.5852	0.01918
1315.51367	0.02072
1317.44213	0.02248
1319.3706	0.0227
1321.29907	0.02424
1323.22753	0.02777
1325.156	0.02712
1327.08447	0.03018
1329.01294	0.03195
1330.9414	0.03218
1332.86987	0.035
1334.79834	0.03807
1336.7268	0.03617
1338.65527	0.03848
1340.58374	0.04113
1342.5122	0.03818
1344.44067	0.03818
1346.36914	0.03887
1348.2976	0.03905
1350.22607	0.0378
1352.15454	0.0352
1354.083	0.03314
1356.01147	0.0323
1357.93994	0.03007
1359.8684	0.03117
1361.79687	0.02818
1363.72534	0.0256
1365.6538	0.02486
1367.58227	0.02313
1369.51074	0.02187
1371.4392	0.02113
1373.36767	0.02077
1375.29614	0.02107
1377.22461	0.02055
1379.15307	0.01814
1381.08154	0.01807
1383.01001	0.01832
1384.93847	0.01576
1386.86694	0.01602
1388.79541	0.01737
1390.72387	0.01802
1392.65234	0.01636
1394.58081	0.01591
1396.50927	0.01765
1398.43774	0.01558
1400.36621	0.01464
1402.29467	0.01557
1404.22314	0.01352
1406.15161	0.01219
1408.08007	0.01398
1410.00854	0.01441
1411.93701	0.01392
1413.86547	0.0154
1415.79394	0.01691
1417.72241	0.01494
1419.65087	0.01218
1421.57934	0.01346
1423.50781	0.01377
1425.43628	0.01591
1427.36474	0.01577
1429.29321	0.01645
1431.22168	0.01581
1433.15014	0.01454
1435.07861	0.01291
1437.00708	0.01344
1438.93554	0.01604
1440.86401	0.01676
1442.79248	0.01524
1444.72094	0.01536
1446.64941	0.01755
1448.57788	0.01826
1450.50634	0.0178
1452.43481	0.01716
1454.36328	0.0188
1456.29174	0.01851
1458.22021	0.01924
1460.14868	0.01924
1462.07714	0.01839
1464.00561	0.01981
1465.93408	0.01901
1467.86254	0.02097
1469.79101	0.0193
1471.71948	0.01882
1473.64795	0.02182
1475.57641	0.02342
1477.50488	0.02236
1479.43335	0.02145
1481.36181	0.02254
1483.29028	0.02364
1485.21875	0.02416
1487.14721	0.02539
1489.07568	0.02644
1491.00415	0.02761
1492.93261	0.02838
1494.86108	0.02895
1496.78955	0.02881
1498.71801	0.03142
1500.64648	0.03287
1502.57495	0.03214
1504.50341	0.03214
1506.43188	0.03446
1508.36035	0.03759
1510.28881	0.03963
1512.21728	0.04038
1514.14575	0.0403
1516.07421	0.0404
1518.00268	0.04378
1519.93115	0.04684
1521.85961	0.04865
1523.78808	0.05479
1525.71655	0.05711
1527.64502	0.05978
1529.57348	0.06283
1531.50195	0.06474
1533.43042	0.06755
1535.35888	0.07325
1537.28735	0.07975
1539.21582	0.08473
1541.14428	0.09005
1543.07275	0.09602
1545.00122	0.10021
1546.92968	0.11335
1548.85815	0.12384
1550.78662	0.13555
1552.71508	0.14853
1554.64355	0.16188
1556.57202	0.1732
1558.50048	0.18562
1560.42895	0.20168
1562.35742	0.22148
1564.28588	0.24822
1566.21435	0.28138
1568.14282	0.3156
1570.07128	0.34757
1571.99975	0.37484
1573.92822	0.39204
1575.85669	0.39983
1577.78515	0.40122
1579.71362	0.4102
1581.64209	0.43615
1583.57055	0.48056
1585.49902	0.554
1587.42749	0.67805
1589.35595	0.83714
1591.28442	0.96202
1593.21289	1
1595.14135	0.94202
1597.06982	0.82644
1598.99829	0.69485
1600.92675	0.56689
1602.85522	0.46768
1604.78369	0.3843
1606.71215	0.319
1608.64062	0.26776
1610.56909	0.22171
1612.49755	0.18638
1614.42602	0.16064
1616.35449	0.13707
1618.28295	0.11776
1620.21142	0.10385
1622.13989	0.0905
1624.06836	0.07941
1625.99682	0.07065
1627.92529	0.06238
1629.85376	0.05582
1631.78222	0.04998
1633.71069	0.04817
1635.63916	0.04208
1637.56762	0.03683
1639.49609	0.0331
1641.42456	0.03132
1643.35302	0.02981
1645.28149	0.02784
1647.20996	0.02557
1649.13842	0.02245
1651.06689	0.0217
1652.99536	0.02074
1654.92382	0.01974
1656.85229	0.01993
1658.78076	0.01832
1660.70922	0.01592
1662.63769	0.01747
1664.56616	0.01756
1666.49462	0.01567
1668.42309	0.01522
1670.35156	0.01517
1672.28003	0.01524
1674.20849	0.01502
1676.13696	0.01295
1678.06543	0.0099
1679.99389	0.0095
1681.92236	0.01181
1683.85083	0.01147
1685.77929	0.01042
1687.70776	0.01118
1689.63623	0.00984
1691.56469	0.01118
1693.49316	0.01154
1695.42163	0.0098
1697.35009	0.00901
1699.27856	0.00896
1701.20703	0.00901
1703.13549	0.00823
1705.06396	0.00771
1706.99243	0.00929
1708.92089	0.01071
1710.84936	0.0095
1712.77783	0.0088
1714.70629	0.01129
1716.63476	0.01333
1718.56323	0.01278
1720.4917	0.01185
1722.42016	0.00635
1724.34863	0.01132
1726.2771	0.01364
1728.20556	0.01223
1730.13403	0.01145
1732.0625	0.01024
1733.99096	0.0114
1735.91943	0.01191
1737.8479	0.01165
1739.77636	0.01213
1741.70483	0.01183
1743.6333	0.01078
1745.56176	0.01147
1747.49023	0.01257
1749.4187	0.01209
1751.34716	0.01239
1753.27563	0.01127
1755.2041	0.01106
1757.13256	0.01193
1759.06103	0.01189
1760.9895	0.01114
1762.91796	0.0107
1764.84643	0.01084
1766.7749	0.01119
1768.70336	0.00996
1770.63183	0.00881
1772.5603	0.00912
1774.48877	0.00991
1776.41723	0.00994
1778.3457	0.00879
1780.27417	0.00877
1782.20263	0.00858
1784.1311	0.00683
1786.05957	0.00551
1787.98803	0.00401
1789.9165	0.00419
1791.84497	0.00715
1793.77343	0.00368
1795.7019	0.00261
1797.63037	0.0025
1799.55883	0.00478
1801.4873	0.00649
1803.41577	0.00535
1805.34423	0.00445
1807.2727	0.00389
1809.20117	0.00736
1811.12963	0.00278
1813.0581	0.00437
1814.98657	0.00347
1816.91503	0.0024
1818.8435	0.00134
1820.77197	0.00201
1822.70044	0.00403
1824.6289	0.00419
1826.55737	0.0028
1828.48584	0.00212
1830.4143	0.00294
1832.34277	0.00275
1834.27124	0.00214
1836.1997	0.00319
1838.12817	9.54672E-4
1840.05664	0.0013
1841.9851	0.00222
1843.91357	0.00287
1845.84204	0.00357
1847.7705	0.00382
1849.69897	1.85399E-4
1851.62744	5.13078E-4
1853.5559	0.00167
1855.48437	0.0022
1857.41284	0.00205
1859.3413	5.09743E-4
1861.26977	-4.83756E-4
1863.19824	0.00152
1865.1267	0.00374
1867.05517	0.00469
1868.98364	0.00168
1870.91211	7.42859E-4
1872.84057	0.00206
1874.76904	1.88374E-4
1876.69751	0.00106
1878.62597	0.00315
1880.55444	0.00261
1882.48291	0.00131
1884.41137	0.00283
1886.33984	0.0025
1888.26831	6.62264E-5
1890.19677	1.08001E-4
1892.12524	9.31975E-4
1894.05371	4.47306E-4
1895.98217	0.00212
1897.91064	-4.1196E-4
1899.83911	-0.00127
1901.76757	4.44348E-4
1903.69604	1.81014E-4
1905.62451	-3.6027E-4
1907.55297	-0.00105
1909.48144	7.79954E-4
1911.40991	0.00164
1913.33837	8.80617E-4
1915.26684	5.28735E-4
1917.19531	0.00114
1919.12378	0.0023
1921.05224	0.00247
1922.98071	5.57238E-4
1924.90918	9.63285E-4
1926.83764	0.00228
1928.76611	0.00145
1930.69458	0.00126
1932.62304	0.00124
1934.55151	0.00177
1936.47998	9.97695E-4
1938.40844	-8.13149E-4
1940.33691	0.00127
1942.26538	0.00264
1944.19384	0.00106
1946.12231	0.00166
1948.05078	0.00355
1949.97924	0.00105
1951.90771	5.94508E-4
1953.83618	0.00165
1955.76464	-2.2873E-4
1957.69311	0.00274
1959.62158	0.00329
1961.55004	0.00166
1963.47851	-3.59861E-4
1965.40698	2.44345E-4
1967.33545	5.26227E-4
1969.26391	0.00132
1971.19238	0.0026
1973.12085	0.00238
1975.04931	0.00136
1976.97778	0.00187
1978.90625	0.00368
1980.83471	0.00237
1982.76318	-1.03675E-4
1984.69165	0.00138
1986.62011	0.00224
1988.54858	0.00169
1990.47705	0.00152
1992.40551	0.00155
1994.33398	-1.51121E-4
1996.26245	-8.45641E-4
1998.19091	0.00232
2000.11938	0.00372
2002.04785	0.00152
2003.97631	-9.57158E-4
2005.90478	-0.00102
2007.83325	9.71449E-4
2009.76171	9.54295E-4
2011.69018	0.00184
2013.61865	1.84027E-4
2015.54711	-0.00155
2017.47558	0.00148
2019.40405	1.33554E-4
2021.33252	-0.00226
2023.26098	-2.13245E-4
2025.18945	-5.70094E-4
2027.11792	-6.94207E-4
2029.04638	3.17952E-4
2030.97485	-1.88234E-4
2032.90332	8.43929E-4
2034.83178	-0.00122
2036.76025	-0.00423
2038.68872	-0.00258
2040.61718	-0.00128
2042.54565	-0.00405
2044.47412	-0.00201
2046.40258	-4.42082E-5
2048.33105	-0.00113
2050.25952	-0.00348
2052.18798	-8.26499E-4
2054.11645	-6.80998E-5
2056.04492	-0.00306
2057.97338	-0.00271
2059.90185	-0.00159
2061.83032	-0.00268
2063.75878	-0.00153
2065.68725	-0.00215
2067.61572	-0.00361
2069.54419	-0.00296
2071.47265	-1.94503E-4
2073.40112	5.47073E-4
2075.32959	-0.00333
2077.25805	-0.00189
2079.18652	0.00121
2081.11499	0.00164
2083.04345	0.00195
2084.97192	6.8426E-4
2086.90039	-0.00151
2088.82885	-3.43021E-4
2090.75732	8.00809E-4
2092.68579	-0.00132
2094.61425	-0.00355
2096.54272	-0.00306
2098.47119	-0.002
2100.39965	-0.00253
2102.32812	-0.00267
2104.25659	-0.00198
2106.18505	-5.51457E-4
2108.11352	2.61219E-4
2110.04199	-9.40449E-4
2111.97045	-6.17092E-4
2113.89892	1.68004E-4
2115.82739	-8.27944E-4
2117.75586	-0.0011
2119.68432	-0.00116
2121.61279	-0.00134
2123.54126	-0.00103
2125.46972	-0.00228
2127.39819	-0.00329
2129.32666	-1.83586E-4
2131.25512	3.29433E-4
2133.18359	-0.00123
2135.11206	-0.00159
2137.04052	-0.00156
2138.96899	-4.60905E-4
2140.89746	5.32092E-4
2142.82592	-4.49096E-4
2144.75439	-0.0015
2146.68286	-0.00248
2148.61132	-9.54182E-4
2150.53979	-0.00129
2152.46826	-0.00115
2154.39672	7.7875E-4
2156.32519	1.96295E-4
2158.25366	-0.00177
2160.18212	-9.59513E-4
2162.11059	-3.46607E-4
2164.03906	-9.18781E-4
2165.96753	-0.00288
2167.89599	-0.00394
2169.82446	-0.00132
2171.75293	1.95695E-4
2173.68139	-8.85998E-4
2175.60986	-5.63173E-4
2177.53833	-0.00222
2179.46679	5.86787E-6
2181.39526	-0.0014
2183.32373	7.20989E-4
2185.25219	6.46155E-4
2187.18066	6.1706E-4
2189.10913	-0.00179
2191.03759	-0.00177
2192.96606	3.913E-4
2194.89453	-2.4121E-4
2196.82299	-0.00206
2198.75146	-0.0019
2200.67993	8.40133E-4
2202.60839	-0.00167
2204.53686	-5.79575E-4
2206.46533	1.24569E-4
2208.39379	-3.95361E-4
2210.32226	9.02544E-4
2212.25073	-6.39517E-4
2214.1792	-0.00287
2216.10766	-0.00263
2218.03613	-7.26717E-4
2219.9646	0.00107
2221.89306	0.0012
2223.82153	-1.7546E-4
2225.75	-2.22474E-4
2227.67846	-8.06166E-5
2229.60693	-5.27837E-4
2231.5354	-5.73376E-4
2233.46386	-5.21708E-4
2235.39233	-0.00132
2237.3208	-0.00178
2239.24926	5.72123E-4
2241.17773	4.9956E-4
2243.1062	-0.00148
2245.03466	-4.56574E-4
2246.96313	-4.63342E-4
2248.8916	-0.00227
2250.82006	-0.00197
2252.74853	-0.0025
2254.677	-0.00109
2256.60546	4.77592E-5
2258.53393	9.70167E-4
2260.4624	-4.45896E-4
2262.39086	-0.0042
2264.31933	-0.00344
2266.2478	-6.31751E-4
2268.17627	-0.0013
2270.10473	-2.81228E-4
2272.0332	-8.77767E-5
2273.96167	-0.00198
2275.89013	-0.00217
2277.8186	-5.98098E-4
2279.74707	0.00129
2281.67553	7.47127E-4
2283.604	-0.00134
2285.53247	-0.00115
2287.46093	-0.00108
2289.3894	-0.00143
2291.31787	-6.0975E-4
2293.24633	-1.83862E-4
2295.1748	-5.73206E-4
2297.10327	-4.66149E-4
2299.03173	-2.1881E-4
2300.9602	-5.47911E-4
2302.88867	-0.00255
2304.81713	-0.00464
2306.7456	-7.7156E-4
2308.67407	-0.00202
2310.60253	-0.00279
2312.531	-0.00132
2314.45947	-0.00134
2316.38794	8.20681E-8
2318.3164	-2.77424E-4
2320.24487	-0.00151
2322.17334	-4.6994E-4
2324.1018	7.45827E-4
2326.03027	-6.45526E-5
2327.95874	-0.00104
2329.8872	-0.00134
2331.81567	-1.96207E-4
2333.74414	-0.00153
2335.6726	-2.60693E-4
2337.60107	-1.88638E-4
2339.52954	-1.57772E-4
2341.458	2.08835E-4
2343.38647	-0.00522
2345.31494	-0.00296
2347.2434	-0.00118
2349.17187	-9.37544E-4
2351.10034	9.93386E-4
2353.0288	0.00152
2354.95727	-1.56271E-4
2356.88574	-0.00268
2358.8142	-0.00236
2360.74267	-0.00175
2362.67114	1.6713E-4
2364.59961	-0.00157
2366.52807	4.45437E-4
2368.45654	-0.00323
2370.38501	-0.00299
2372.31347	-0.00338
2374.24194	-0.00142
2376.17041	-4.51327E-4
2378.09887	-3.41242E-5
2380.02734	0.00197
2381.95581	0.00103
2383.88427	-0.00158
2385.81274	-2.37827E-4
2387.74121	0.0015
2389.66967	-2.53876E-4
2391.59814	4.50594E-4
2393.52661	1.77607E-4
2395.45507	-0.00218
2397.38354	-0.0013
2399.31201	-3.65798E-4
2401.24047	0.00107
2403.16894	0.00228
2405.09741	0.00121
2407.02587	-3.18323E-4
2408.95434	-6.83233E-4
2410.88281	-2.15716E-4
2412.81128	0.00117
2414.73974	3.60966E-4
2416.66821	0.00451
2418.59668	0.00273
2420.52514	0.00262
2422.45361	0.0024
2424.38208	0.0036
2426.31054	0.00323
2428.23901	0.00416
2430.16748	0.00517
2432.09594	0.00227
2434.02441	0.0047
2435.95288	0.00421
2437.88134	0.00513
2439.80981	0.00494
2441.73828	0.00436
2443.66674	0.00705
2445.59521	0.00571
2447.52368	0.00429
2449.45214	0.00456
2451.38061	0.0056
2453.30908	0.00513
2455.23754	0.005
2457.16601	0.00585
2459.09448	0.00678
2461.02295	0.00626
2462.95141	0.00282
2464.87988	0.00372
2466.80835	0.00643
2468.73681	0.00527
2470.66528	0.00623
2472.59375	0.00662
2474.52221	0.00532
2476.45068	0.00567
2478.37915	0.00647
2480.30761	0.00485
2482.23608	0.00305
2484.16455	0.00458
2486.09301	0.00531
2488.02148	0.00598
2489.94995	5.0564E-4
2491.87841	0.00488
2493.80688	0.00558
2495.73535	0.00384
2497.66381	0.00423
2499.59228	0.00464
2501.52075	0.00533
2503.44921	0.00376
2505.37768	0.00372
2507.30615	0.00529
2509.23461	0.00421
2511.16308	0.00349
2513.09155	0.00501
2515.02002	0.00411
2516.94848	0.00293
2518.87695	0.005
2520.80542	0.00606
2522.73388	0.0056
2524.66235	0.00514
2526.59082	0.00614
2528.51928	0.00459
2530.44775	0.0018
2532.37622	0.00384
2534.30468	0.00585
2536.23315	0.0042
2538.16162	0.00327
2540.09008	0.00652
2542.01855	7.64251E-4
2543.94702	0.00546
2545.87548	0.00324
2547.80395	0.00638
2549.73242	0.00561
2551.66088	0.00365
2553.58935	0.00379
2555.51782	0.00735
2557.44628	0.00755
2559.37475	0.00155
2561.30322	0.00347
2563.23169	0.00427
2565.16015	0.00679
2567.08862	0.00931
2569.01709	0.00876
2570.94555	0.00848
2572.87402	0.00812
2574.80249	0.00926
2576.73095	0.01064
2578.65942	0.00883
2580.58789	0.00998
2582.51635	0.01341
2584.44482	0.01152
2586.37329	0.01218
2588.30175	0.01399
2590.23022	0.0124
2592.15869	0.0164
2594.08715	0.01518
2596.01562	0.01473
2597.94409	0.01621
2599.87255	0.01721
2601.80102	0.01799
2603.72949	0.02023
2605.65795	0.02072
2607.58642	0.02083
2609.51489	0.02302
2611.44336	0.02182
2613.37182	0.02531
2615.30029	0.02848
2617.22876	0.02809
2619.15722	0.02976
2621.08569	0.03073
2623.01416	0.03448
2624.94262	0.03661
2626.87109	0.03922
2628.79956	0.0404
2630.72802	0.04477
2632.65649	0.04919
2634.58496	0.05104
2636.51342	0.05285
2638.44189	0.06011
2640.37036	0.06604
2642.29882	0.0686
2644.22729	0.07149
2646.15576	0.0777
2648.08422	0.08339
2650.01269	0.08964
2651.94116	0.0945
2653.86962	0.09917
2655.79809	0.10403
2657.72656	0.10849
2659.65503	0.11516
2661.58349	0.12011
2663.51196	0.12358
2665.44043	0.12735
2667.36889	0.12721
2669.29736	0.12792
2671.22583	0.13203
2673.15429	0.13012
2675.08276	0.12792
2677.01123	0.12481
2678.93969	0.12157
2680.86816	0.12017
2682.79663	0.11233
2684.72509	0.0976
2686.65356	0.09334
2688.58203	0.08851
2690.51049	0.08344
2692.43896	0.07991
2694.36743	0.07459
2696.29589	0.06551
2698.22436	0.0602
2700.15283	0.05728
2702.08129	0.04859
2704.00976	0.04585
2705.93823	0.04566
2707.8667	0.04025
2709.79516	0.04026
2711.72363	0.03439
2713.6521	0.02915
2715.58056	0.02749
2717.50903	0.02761
2719.4375	0.02331
2721.36596	0.0243
2723.29443	0.02052
2725.2229	0.02068
2727.15136	0.01904
2729.07983	0.01813
2731.0083	0.01615
2732.93676	0.01558
2734.86523	0.01615
2736.7937	0.0125
2738.72216	0.01511
2740.65063	0.01173
2742.5791	0.00963
2744.50756	0.01024
2746.43603	0.00778
2748.3645	0.00857
2750.29296	0.00834
2752.22143	0.00892
2754.1499	0.00982
2756.07836	0.00983
2758.00683	0.00776
2759.9353	0.00607
2761.86377	0.00615
2763.79223	0.00744
2765.7207	0.00859
2767.64917	0.00262
2769.57763	0.00644
2771.5061	0.00284
2773.43457	0.00482
2775.36303	0.00724
2777.2915	0.00289
2779.21997	0.00225
2781.14843	0.00552
2783.0769	0.00338
2785.00537	0.00245
2786.93383	0.00391
2788.8623	0.00458
2790.79077	0.0036
2792.71923	0.00327
2794.6477	0.00299
2796.57617	0.0051
2798.50463	0.00508
2800.4331	0.00246
2802.36157	0.0036
2804.29003	0.00239
2806.2185	-0.0017
2808.14697	0.001
2810.07544	3.91996E-5
2812.0039	0.00316
2813.93237	0.00359
2815.86084	0.0014
2817.7893	0.00234
2819.71777	0.00283
2821.64624	0.00244
2823.5747	0.00118
2825.50317	0.00213
2827.43164	0.00349
2829.3601	0.0037
2831.28857	0.00485
2833.21704	0.0028
2835.1455	0.00347
2837.07397	0.0026
2839.00244	-7.88538E-4
2840.9309	3.97368E-4
2842.85937	-1.7887E-4
2844.78784	1.94135E-4
2846.7163	0.00154
2848.64477	7.69141E-4
2850.57324	0.00157
2852.5017	0.00481
2854.43017	0.00329
2856.35864	-5.42321E-4
2858.28711	0.00345
2860.21557	0.00511
2862.14404	0.00485
2864.07251	0.00543
2866.00097	0.00308
2867.92944	0.00235
2869.85791	6.63083E-4
2871.78637	0.00191
2873.71484	0.0044
2875.64331	0.00274
2877.57177	0.00203
2879.50024	0.00304
2881.42871	0.00335
2883.35717	0.00379
2885.28564	0.00168
2887.21411	-0.00353
2889.14257	-2.69521E-4
2891.07104	0.00467
2892.99951	0.00147
2894.92797	-5.64574E-4
2896.85644	0.00105
2898.78491	0.00286
2900.71337	0.00387
2902.64184	0.00295
2904.57031	0.00388
2906.49878	0.00273
2908.42724	0.00102
2910.35571	0.00172
2912.28418	0.00621
2914.21264	0.00328
2916.14111	0.00361
2918.06958	0.00439
2919.99804	0.00349
2921.92651	0.00302
2923.85498	0.00437
2925.78344	0.00477
2927.71191	0.00205
2929.64038	3.40269E-4
2931.56884	0.00321
2933.49731	0.00183
2935.42578	0.00284
2937.35424	0.00283
2939.28271	0.00153
2941.21118	-2.49978E-4
2943.13964	0.00208
2945.06811	0.00214
2946.99658	0.00413
2948.92504	0.00207
2950.85351	0.0031
2952.78198	0.00114
2954.71045	0.00215
2956.63891	6.3946E-4
2958.56738	4.19764E-4
2960.49585	5.22453E-4
2962.42431	4.90241E-4
2964.35278	3.57293E-4
2966.28125	-0.00168
2968.20971	-0.0017
2970.13818	-0.00138
2972.06665	-0.00173
2973.99511	0.00163
2975.92358	0.0015
2977.85205	5.08468E-4
2979.78051	-2.80663E-4
2981.70898	-0.00557
2983.63745	-0.00264
2985.56591	5.15058E-5
2987.49438	1.22566E-4
2989.42285	7.25093E-5
2991.35131	4.00037E-4
2993.27978	-8.75774E-4
2995.20825	-0.00172
2997.13671	0.00284
2999.06518	-0.00366
3000.99365	-7.00041E-4
3002.92211	6.64772E-4
3004.85058	0.00122
3006.77905	-0.00135
3008.70752	-1.64295E-4
3010.63598	-7.22383E-4
3012.56445	-0.00209
3014.49292	1.952E-4
3016.42138	0.00146
3018.34985	0.00157
3020.27832	0.00132
3022.20678	-6.25586E-5
3024.13525	-0.0031
3026.06372	7.2875E-4
3027.99218	7.75529E-4
3029.92065	0.00144
3031.84912	9.53159E-4
3033.77758	0.00106
3035.70605	5.11732E-4
3037.63452	2.14291E-4
3039.56298	-6.35754E-6
3041.49145	-0.00286
3043.41992	-0.00236
3045.34838	-0.00363
3047.27685	6.08136E-4
3049.20532	-0.00305
3051.13378	-0.00211
3053.06225	-0.00225
3054.99072	-0.00235
3056.91919	-0.00218
3058.84765	-0.00315
3060.77612	-0.00123
3062.70459	-0.00144
3064.63305	-9.4198E-4
3066.56152	-0.00327
3068.48999	9.41416E-4
3070.41845	0.00176
3072.34692	9.95304E-4
3074.27539	-0.0019
3076.20385	-0.00131
3078.13232	7.68648E-4
3080.06079	0.0018
3081.98925	6.99383E-4
3083.91772	-0.00179
3085.84619	-5.76989E-4
3087.77465	-1.05053E-4
3089.70312	-0.0016
3091.63159	1.85542E-4
3093.56005	4.71288E-4
3095.48852	0.00107
3097.41699	-0.00287
3099.34545	0.00116
3101.27392	0.00194
3103.20239	7.27352E-4
3105.13086	0.00283
3107.05932	0.00233
3108.98779	1.43839E-4
3110.91626	0.00353
3112.84472	0.00165
3114.77319	0.00242
3116.70166	0.00138
3118.63012	-0.00123
3120.55859	4.08544E-4
3122.48706	0.00216
3124.41552	6.3962E-4
3126.34399	-0.0013
3128.27246	-0.00201
3130.20092	0.00207
3132.12939	8.87152E-4
3134.05786	0.00165
3135.98632	0.00134
3137.91479	4.39876E-4
3139.84326	0.00349
3141.77172	0.00601
3143.70019	0.00502
3145.62866	0.00578
3147.55712	0.00751
3149.48559	0.00813
3151.41406	0.00397
3153.34253	0.00566
3155.27099	0.00733
3157.19946	0.00411
3159.12793	0.01116
3161.05639	0.00795
3162.98486	0.00851
3164.91333	0.00787
3166.84179	0.01077
3168.77026	0.00946
3170.69873	0.00989
3172.62719	0.01003
3174.55566	0.01022
3176.48413	0.01
3178.41259	0.01018
3180.34106	0.01288
3182.26953	0.01224
3184.19799	0.01296
3186.12646	0.01383
3188.05493	0.01627
3189.98339	0.01252
3191.91186	0.00961
3193.84033	0.00979
3195.76879	0.01076
3197.69726	0.01008
3199.62573	0.00905
3201.5542	0.00991
3203.48266	0.00953
3205.41113	0.00803
3207.3396	0.00698
3209.26806	0.0093
3211.19653	0.0112
3213.125	0.00945
3215.05346	0.00705
3216.98193	0.00844
3218.9104	0.009
3220.83886	0.00917
3222.76733	0.00801
3224.6958	0.00752
3226.62426	0.01043
3228.55273	0.01101
3230.4812	0.00824
3232.40966	0.00881
3234.33813	0.01386
3236.2666	0.01303
3238.19506	0.00934
3240.12353	0.00909
3242.052	0.01109
3243.98046	0.00633
3245.90893	0.0085
3247.8374	0.00777
3249.76586	0.00845
3251.69433	0.00619
3253.6228	0.00187
3255.55127	0.00292
3257.47973	0.00451
3259.4082	0.00217
3261.33667	-2.27904E-4
3263.26513	6.31544E-4
3265.1936	0.00285
3267.12207	0.00247
3269.05053	-0.00191
3270.979	0.00144
3272.90747	0.00104
3274.83593	2.70617E-4
3276.7644	0.0018
3278.69287	-0.00399
3280.62133	-0.00345
3282.5498	-1.0348E-4
3284.47827	-0.00128
3286.40673	0.0013
3288.3352	0.00106
3290.26367	0.00139
3292.19213	-0.00334
3294.1206	9.7112E-5
3296.04907	0.00178
3297.97753	-0.00142
3299.906	-4.7742E-4
3301.83447	4.96354E-4
3303.76294	4.93083E-4
3305.6914	-0.00114
3307.61987	-0.0013
3309.54834	0.00322
3311.4768	-6.66057E-4
3313.40527	-0.00603
3315.33374	0.00201
3317.2622	-0.0021
3319.19067	-0.00249
3321.11914	-0.00302
3323.0476	-0.00433
3324.97607	-0.00453
3326.90454	0.0013
3328.833	8.98052E-5
3330.76147	-5.26826E-4
3332.68994	0.0011
3334.6184	4.45302E-4
3336.54687	0.00158
3338.47534	0.00201
3340.4038	0.00111
3342.33227	-2.65639E-4
3344.26074	-0.00186
3346.1892	-0.00272
3348.11767	-5.73585E-4
3350.04614	-5.97575E-4
3351.97461	-0.00113
3353.90307	0.00337
3355.83154	0.00205
3357.76001	9.23655E-4
3359.68847	-4.104E-4
3361.61694	-0.00192
3363.54541	-0.00145
3365.47387	-0.00241
3367.40234	0.00126
3369.33081	0.00263
3371.25927	7.79686E-4
3373.18774	0.0028
3375.11621	-0.00315
3377.04467	4.71868E-4
3378.97314	-0.00103
3380.90161	-0.0022
3382.83007	-5.94206E-5
3384.75854	-5.70366E-4
3386.68701	-0.00166
3388.61547	-0.00372
3390.54394	-0.00302
3392.47241	0.00145
3394.40087	-2.6859E-5
3396.32934	5.387E-4
3398.25781	0.00254
3400.18628	-1.83615E-5